Step,X_d,Y_d,Theta_d,X,Y,Theta,Cost
0.0,0.0,0.0,0.0,0.0,0.0,0.0,0.00579933856560364
1.0,0.0,0.0,0.0,0.005000000000000001,0.0,0.025,0.005535834047368108
2.0,0.0,0.0,0.0,0.014996875162757028,0.00024997395914712334,0.025,0.007728723814520831
3.0,0.016016016016016016,0.0,0.0,0.029656138122669196,0.0006165319025652556,0.05,0.006353417084264022
4.0,0.03203203203203203,0.0,0.0,0.043694500006497466,0.0013190355140260696,0.05,0.004962184651653538
5.0,0.04804804804804805,0.0,0.0,0.05742674515503214,0.002006220521090449,0.025,0.008596511911333746
6.0,0.06406406406406406,0.0,0.0,0.0684621098255372,0.0022821621280833346,0.025,0.0006235910733786731
7.0,0.08008008008008008,0.0,0.0,0.08277360255602557,0.0026400240040096536,0.0,0.0009211074149291275
8.0,0.0960960960960961,0.0,0.0,0.09893249868577209,0.0026400240040096536,0.0,0.0002467899962212318
9.0,0.11211211211211211,0.0,0.0,0.1125991396581768,0.0026400240040096536,0.0081994694937078,0.0057199586068275255
10.0,0.11211211211211211,0.0,0.0,0.12647004284891786,0.002753760600470145,-0.0086010610125844,0.004572314231597592
11.0,0.12812812812812813,0.0,0.0,0.14128816281294293,0.0026263059035937703,-0.0004015915188765994,0.00436157054322363
12.0,0.14414414414414414,0.0,0.0,0.15445617196591618,0.0026210177425131627,-0.017202122025168798,0.0015691355933634024
13.0,0.16016016016016016,0.0,0.0,0.16900559464214412,0.0023707121081899497,-0.013385326196219393,0.008913677878347574
14.0,0.17617617617617617,0.0,0.0,0.1815788521741187,0.002202404902958711,-0.03456853036726999,0.01180751841820443
15.0,0.1921921921921922,0.0,0.0,0.19489475201000073,0.0017419103727434437,-0.03075173453832059,0.003067049027054517
16.0,0.2082082082082082,0.0,0.0,0.21046774290204617,0.0012628628745247408,-0.05193493870937119,0.011887251273517882
17.0,0.2082082082082082,0.0,0.0,0.22269095209810819,0.0006274798916687741,-0.04811814288042178,0.005281446873083747
18.0,0.22422422422422422,0.0,0.0,0.23524335123310927,2.3015167629751913e-05,-0.05721875365960523,0.0036384779483026033
19.0,0.24024024024024024,0.0,0.0,0.24889159747466127,-0.0007587738469342099,-0.04131936443878868,0.0014525028343813301
20.0,0.25625625625625625,0.0,0.0,0.2634919896714742,-0.0013623963316884628,-0.018050941003029383,0.0015648745552300067
21.0,0.27227227227227224,0.0,0.0,0.277193556857942,-0.0016097493787520297,-0.019782517567270085,0.0013684135787432735
22.0,0.2882882882882883,0.0,0.0,0.28959369405914936,-0.001855087315776922,0.0034859058684892155,0.005087144549448978
23.0,0.2882882882882883,0.0,0.0,0.3017105928717493,-0.0018128487760102868,0.0017543293042485155,0.0028364543282474795
24.0,0.30430430430430433,0.0,0.0,0.31481447511511457,-0.0017898602278075928,0.025022752740007814,0.002872288110065833
25.0,0.3203203203203203,0.0,0.0,0.328226877018949,-0.001454174946606093,0.023291176175767113,0.0010342198292250166
26.0,0.3363363363363363,0.0,0.0,0.343000391233095,-0.0011100201898285786,-0.0020172732564789665,0.0003180209696252339
27.0,0.35235235235235235,0.0,0.0,0.3556831511829239,-0.0011356048169983409,-0.0023257226887250437,0.000623061788742611
28.0,0.3683683683683684,0.0,0.0,0.37195691105182854,-0.0011734531377966863,-0.016259247081696068,0.001072670877690372
29.0,0.3843843843843844,0.0,0.0,0.38450864391355266,-0.001377552849494454,-0.030488590968798284,0.014958322468979624
30.0,0.3843843843843844,0.0,0.0,0.3980648735434253,-0.001790991302178637,-0.0197179348559005,0.010202412041850503
31.0,0.40040040040040037,0.0,0.0,0.4095911541790675,-0.0020182952120026388,-0.03394727874300271,0.0031287144137424187
32.0,0.4164164164164164,0.0,0.0,0.42392886365051624,-0.0025052084888361388,-0.023176622630104927,0.0018019587104858674
33.0,0.43243243243243246,0.0,0.0,0.4367509013331439,-0.0028024332381308796,-0.035795536407866424,0.0014478577754951532
34.0,0.44844844844844844,0.0,0.0,0.45084994684894353,-0.0033073317992441007,-0.023414450185627916,0.013620177028470891
35.0,0.46446446446446443,0.0,0.0,0.466744820627718,-0.003679569556802764,-0.03603336396338941,0.01290297047578932
36.0,0.46446446446446443,0.0,0.0,0.4789593673307163,-0.004119891352057752,-0.0236522777411509,0.00465887113714129
37.0,0.4804804804804805,0.0,0.0,0.4927470970310033,-0.004446063390118176,-0.03627119151891239,0.006453177112957951
38.0,0.4964964964964965,0.0,0.0,0.5069400177951037,-0.004961083410508898,-0.023890105296673885,0.0015103881198733418
39.0,0.5125125125125125,0.0,0.0,0.5198462091499129,-0.005269472352860171,-0.004265015069018725,0.0009679303566179792
40.0,0.5285285285285285,0.0,0.0,0.531858908299159,-0.005320707006410491,-0.009639924841363567,0.006499214483824024
41.0,0.5285285285285285,0.0,0.0,0.5442181717986213,-0.005439853068337189,0.009985165386291593,0.002750813650064569
42.0,0.5445445445445445,0.0,0.0,0.5559129700426194,-0.005323074692613748,0.004610255613946752,0.0038234869494333844
43.0,0.5605605605605606,0.0,0.0,0.5697504776689665,-0.0052592797934204,-0.025764654158398088,0.005420156630077803
44.0,0.5765765765765766,0.0,0.0,0.5820867166114614,-0.00557718907107286,-0.031139563930742926,0.0024683823019512026
45.0,0.5925925925925926,0.0,0.0,0.5951855822027355,-0.005985213925584587,-0.011514473703087762,0.0056070401467581835
46.0,0.6086086086086087,0.0,0.0,0.6096590862062633,-0.006151876072418132,-0.0168893834754326,0.004249438499046893
47.0,0.6086086086086087,0.0,0.0,0.6227657541343179,-0.006373260663619424,0.002735706752222563,0.0043768683506646144
48.0,0.6246246246246246,0.0,0.0,0.6377352097424827,-0.006332308520671826,-0.002639203020122275,0.013351596037164019
49.0,0.6406406406406406,0.0,0.0,0.6498510579533049,-0.006364284778103601,-0.03301411279246712,0.004317322491681205
50.0,0.6566566566566566,0.0,0.0,0.6669576216319597,-0.006929248072922338,-0.038389022564811956,0.006843408521878822
51.0,0.6726726726726726,0.0,0.0,0.6790645854379231,-0.007394251029702265,-0.0687639323371568,0.04758557568044759
52.0,0.6886886886886887,0.0,0.0,0.6918742409457689,-0.0082764842931534,-0.07413884210950164,0.007190411660892685
53.0,0.7047047047047047,0.0,0.0,0.7056520653590637,-0.009299831895892792,-0.05451375188184648,0.007904448830876709
54.0,0.7047047047047047,0.0,0.0,0.7173680984691714,-0.009939150241314358,-0.059888661654191315,0.008873342173464105
55.0,0.7207207207207207,0.0,0.0,0.7271319643156126,-0.010524595195911807,-0.04026357142653615,0.004298199081454799
56.0,0.7367367367367368,0.0,0.0,0.7390998996873472,-0.011006727581881206,-0.04563848119888099,0.005894984786672932
57.0,0.7367367367367368,0.0,0.0,0.7497216852378314,-0.011491826588347562,-0.031294346485091655,0.004940674857236125
58.0,0.7527527527527528,0.0,0.0,0.7626263140056615,-0.011895800396261143,0.008049788228697681,0.02321137406746152
59.0,0.7687687687687688,0.0,0.0,0.7708931394121472,-0.011829252765000445,0.022393922942487016,0.012856031005818582
60.0,0.7687687687687688,0.0,0.0,0.7841569061636656,-0.011532175332544973,0.01173805765627635,0.004853816903306657
61.0,0.7847847847847848,0.0,0.0,0.797271258530774,-0.011378231238028568,0.015718134374928333,0.00836473187089479
62.0,0.8008008008008007,0.0,0.0,0.8098123959494191,-0.011181091719520517,-0.0053017889064196876,0.004727950526688524
63.0,0.8168168168168168,0.0,0.0,0.8247582070385416,-0.011260331997405743,-0.001321712187767706,0.007371974722746049
64.0,0.8328328328328328,0.0,0.0,0.8368723255610504,-0.01127634338482456,0.027658364530884275,0.05075572210321016
65.0,0.8488488488488488,0.0,0.0,0.85231191316726,-0.010849200717787635,0.031638441249536256,0.009888694383781909
66.0,0.8488488488488488,0.0,0.0,0.8645446232537659,-0.010462047650864507,0.060618517968188235,0.016723136915643276
67.0,0.8648648648648649,0.0,0.0,0.8776646505910993,-0.009665755445922034,0.06459859468684022,0.014176004984667662
68.0,0.8808808808808809,0.0,0.0,0.8888755404085349,-0.008940538666449104,0.0935786714054922,0.012374575617742956
69.0,0.8968968968968969,0.0,0.0,0.9019097147297811,-0.007717245083429879,0.09755874812414418,0.06406373005503616
70.0,0.8968968968968969,0.0,0.0,0.9121664110390312,-0.006713427929085571,0.07653882484279616,0.06318550546406383
71.0,0.9129129129129129,0.0,0.0,0.9274273018116532,-0.005543091037636486,0.08051890156144814,0.01055459286814029
72.0,0.9289289289289289,0.0,0.0,0.9383137821520685,-0.004664624325189182,0.05949897828010012,0.01694669790776887
73.0,0.944944944944945,0.0,0.0,0.9507771614663175,-0.003922189678572833,0.0634790549987521,0.003304329675648304
74.0,0.960960960960961,0.0,0.0,0.9621034245498336,-0.0032022419099368635,0.05538415840692695,0.012181982767007545
75.0,0.9769769769769769,0.0,0.0,0.9784274778319558,-0.0022972224140560766,0.022289261815101803,0.007831342624719271
76.0,0.9769769769769769,0.0,0.0,0.9905590407715981,-0.0020267740427252776,0.014194365223276656,0.0054052036503276415
77.0,0.992992992992993,0.0,0.0,1.004178411766052,-0.0018334427324132284,0.031099468631451514,0.0070477121660585
78.0,1.009009009009009,0.0,0.0035566767540518695,1.016620298928468,-0.001446381859391459,0.07300457203962638,0.008946305288074599
79.0,1.025025025025025,0.0,0.00987965765014418,1.030181114399494,-0.0004546177787960997,0.08990967544780123,0.011366885133951394
80.0,1.0410410410410411,0.0,0.01620263854623649,1.0480924232784128,0.0011601356234978721,0.08181477885597609,0.03429412625009561
81.0,1.057057057057057,0.0,0.022525619442328712,1.0610329412520785,0.002221229830890469,0.048719882264150936,0.04097433672928753
82.0,1.057057057057057,0.0,0.022525619442328712,1.071963401997795,0.0027541823350617383,0.04062498567232579,0.005276625698165005
83.0,1.073073073073073,0.0,0.028848600338421022,1.082567039734086,0.003185192103592102,0.007530089080500638,0.001706953807025853
84.0,1.089089089089089,0.0,0.03517158123451324,1.0914488769113022,0.0032520743928650614,-0.002180086946415735,0.001882227972222226
85.0,1.105105105105105,0.0,0.04149456213060555,1.1053309329152683,0.003221810255835135,0.0006763444590983511,0.01075673425154082
86.0,1.105105105105105,0.0,0.04149456213060555,1.1160108918533247,0.0032290335879877055,-0.021467224135387562,0.01019958265409823
87.0,1.1211211211211212,0.0,0.04781754302669786,1.128505360727317,0.002960770814058974,-0.018610792729873475,0.0862901671276434
88.0,1.137137137137137,0.0,0.05414052392279008,1.1379633458415472,0.0027847298883805645,0.009245638675640613,0.005589803907404319
89.0,1.137137137137137,0.0,0.05414052392279008,1.151746282481891,0.0029121655716124527,0.0121020700811547,0.004307032980878858
90.0,1.1531531531531531,0.0,0.060463504818882394,1.161662118372276,0.0030321735713228822,0.005994264209896984,0.008793846704350192
91.0,1.1531531531531531,0.0,0.060463504818882394,1.167689917760591,0.003068306226224992,-0.011206060853255123,0.0067198464408015236
92.0,1.1691691691691692,0.0,0.06678648571497471,1.1787171330316524,0.0029447294080596357,-0.003406385916407231,0.011069313266378588
93.0,1.1851851851851851,0.0,0.07310946661106693,1.1928472609471275,0.002896596553161885,-0.020606710979559337,0.009810475642227917
94.0,1.2012012012012012,0.0,0.07943244750715923,1.208613652403342,0.002571657086207616,-0.012807036042711445,0.01824520775586869
95.0,1.2172172172172173,0.0,0.08575542840325155,1.2193825087296797,0.0024337324142054855,0.019992638894136446,0.00773062076536013
96.0,1.2172172172172173,0.0,0.08575542840325155,1.232204722985459,0.0026901164739371332,0.027792313830984336,0.00923423548159905
97.0,1.2332332332332332,0.0,0.09207840929934377,1.2450399458303545,0.003046928888878717,0.010591988767832225,0.008828561488725788
98.0,1.2492492492492493,0.0,0.09840139019543608,1.2600026818558665,0.0032054199478905553,0.018391663704680115,0.008121345562496104
99.0,1.2652652652652652,0.0,0.1047243710915283,1.2714758099760213,0.0034164536567361107,0.05119133864152801,0.0019731232631570203
100.0,1.2812812812812813,0.0,0.11104735198762061,1.2872326308043067,0.004223771737550704,0.08811738850274253,0.16088790346719212
101.0,1.2972972972972974,0.0,0.11737033288371292,1.297968305214098,0.005172227418459036,0.10004343836395704,0.008842933494559531
102.0,1.2972972972972974,0.0,0.11737033288371292,1.3129345390122222,0.006674516235195746,0.08696948822517156,0.009013440114462808
103.0,1.3133133133133132,0.0,0.12369331377980515,1.323561903401911,0.00760111001280778,0.048895538086386074,0.01521690101551488
104.0,1.3293293293293293,0.0,0.13001629467589745,1.3363985163399825,0.008229263780583917,0.03582158794760059,0.012100055310224976
105.0,1.3453453453453452,0.0,0.1363392755719897,1.3482229590620267,0.008653015361711943,0.04774763780881511,0.01060733936476798
106.0,1.3613613613613613,0.0,0.14266225646808198,1.3624182919833554,0.00933132453307569,0.08467368767002963,0.01753197699802201
107.0,1.3613613613613613,0.0,0.14266225646808198,1.3732995998541349,0.010254893269298323,0.09659973753124415,0.00995162325631083
108.0,1.3773773773773774,0.0,0.1489852373641743,1.387653496864231,0.011645805082398857,0.08352578739245867,0.013894372575715639
109.0,1.3933933933933933,0.0,0.15530821826026653,1.3994798130937898,0.012635911039310787,0.05352943967159523,0.04208148165939678
110.0,1.3933933933933933,0.0,0.15530821826026653,1.408005671668721,0.013092731879869592,0.04853309195073179,0.029966622377423195
111.0,1.4094094094094094,0.0,0.16163119915635882,1.417835331509912,0.013570170586418035,0.06853674422986836,0.012825430377692033
112.0,1.4254254254254255,0.0,0.16795418005245114,1.4326417362684594,0.014586545261502513,0.11354039650900492,0.006024995530822966
113.0,1.4414414414414414,0.0,0.17427716094854337,1.444288644576017,0.01591465182022809,0.1335440487881415,0.006449816173433175
114.0,1.4414414414414414,0.0,0.17427716094854337,1.450951176329692,0.016809720511627102,0.1618655510441405,0.010343712612096764
115.0,1.4574574574574575,0.0,0.18060014184463566,1.4620027189045401,0.018614373045604475,0.1651870533001395,0.012656477817378012
116.0,1.4734734734734736,0.0,0.18692312274072798,1.4735358606798787,0.020537018233224777,0.1435085555561385,0.013744504894013824
117.0,1.4734734734734736,0.0,0.18692312274072798,1.4868910426005837,0.022466867551292725,0.1468300578121375,0.016939475863535912
118.0,1.4894894894894894,0.0,0.1932461036368202,1.5013937278601188,0.024611733635467443,0.1251515600681365,0.03492993524733945
119.0,1.5055055055055055,0.0011011011011011096,0.20117260023489356,1.5109786054640348,0.025817598389408874,0.07847306232413548,0.032567269146112694
120.0,1.5215215215215214,0.004304304304304285,0.2121603540822033,1.521758889978861,0.02666530109996129,0.056794564580134474,0.042297410205380456
121.0,1.5215215215215214,0.004304304304304285,0.2121603540822033,1.5310663292353925,0.027194482161741942,0.06011606683613347,0.047726833820545544
122.0,1.5375375375375375,0.007507507507507505,0.22314810792951317,1.5453629273444174,0.02805497424837606,0.038437569092132466,0.0539485020095768
123.0,1.5535535535535536,0.010710710710710725,0.23413586177682305,1.5549258534081736,0.02842273101119025,0.04175907134813146,0.055274319740913624
124.0,1.5695695695695695,0.013913913913913901,0.24512361562413276,1.5677026060564034,0.028956586688783124,0.02008057360413046,0.08480290290772073
125.0,1.5695695695695695,0.013913913913913901,0.24512361562413276,1.5781041334866737,0.029165483404465162,0.023402075860129455,0.04558975348373423
126.0,1.5855855855855856,0.01711711711711712,0.25611136947144264,1.591155663600557,0.02947097207200204,0.05172357811612845,0.12103223694703776
127.0,1.5855855855855856,0.01711711711711712,0.25611136947144264,1.5991999957882144,0.029887425165505313,0.05504508037212745,0.05735146541048768
128.0,1.6016016016016015,0.020320320320320297,0.26709912331875235,1.6122353273647745,0.030605681616038934,0.08336658262812645,0.041807261284498756
129.0,1.6176176176176176,0.023523523523523517,0.27808687716606223,1.620262456946949,0.031276430596988126,0.08668808488412545,0.049381509116514906
130.0,1.6176176176176176,0.023523523523523517,0.27808687716606223,1.6292694159166126,0.032059188366026184,0.06500958714012445,0.05214459635513909
131.0,1.6336336336336337,0.026726726726726737,0.28907463101337216,1.6432806643142055,0.032971339193252625,0.06833108939612345,0.06562874451068036
132.0,1.6496496496496496,0.029929929929929912,0.3000623848606819,1.652865330866292,0.033627291128167924,0.09665259165212245,0.034339924323505425
133.0,1.6496496496496496,0.029929929929929912,0.3000623848606819,1.661055184048485,0.03442133578660175,0.12212204902991312,0.03954061048892611
134.0,1.6656656656656657,0.03313313313313313,0.31105013870799175,1.6741849211504451,0.03603278510245726,0.12259150640770379,0.049827467127541394
135.0,1.6816816816816818,0.03633633633633635,0.32203789255530163,1.6823514249615985,0.03703897473064953,0.14806096378549446,0.024699554259024706
136.0,1.6816816816816818,0.03633633633633635,0.32203789255530163,1.6954349507291218,0.03899041490516498,0.17652711745630134,0.02612421551202383
137.0,1.6976976976976976,0.03953953953953953,0.33302564640261134,1.7064531215167993,0.040955879190007934,0.1799932711271082,0.0747653568337553
138.0,1.7137137137137137,0.04274274274274275,0.3440134002499212,1.7156799449205566,0.04263481575743127,0.20845942479791507,0.010973638393334144
139.0,1.7137137137137137,0.04274274274274275,0.3440134002499212,1.7270489499688844,0.0450397287799354,0.26192557846872194,0.005999021868437564
140.0,1.7297297297297298,0.04594594594594597,0.3550011540972311,1.7414711257292068,0.04890608980409877,0.2999563413394437,0.0202740993524305
141.0,1.7457457457457457,0.04914914914914914,0.36598890794454086,1.7520824463599145,0.052188048331834255,0.36298710421016545,0.004088900824501457
142.0,1.7457457457457457,0.04914914914914914,0.36598890794454086,1.7577917659796491,0.054356545067443314,0.4010178670808872,0.005693262372500233
143.0,1.7617617617617618,0.05235235235235236,0.37697666179185074,1.7680178282887804,0.05869232953570519,0.41404862995160896,0.006327097164730901
144.0,1.7777777777777777,0.05555555555555554,0.3879644156391604,1.7812317990748607,0.06449925061409446,0.45207939282233073,0.02163706268003823
145.0,1.7937937937937938,0.05875875875875876,0.3989521694864703,1.7921439473757463,0.06979843263374781,0.4651101556930525,0.01122473193353886
146.0,1.7937937937937938,0.05875875875875876,0.3989521694864703,1.8046492474643876,0.0760739614065859,0.45314091856377425,0.009711296039989688
147.0,1.8098098098098099,0.06196196196196198,0.40993992333378015,1.813067454300015,0.08017307920311226,0.466171681434496,0.016528522022253276
148.0,1.8258258258258258,0.06516516516516516,0.4209276771810899,1.82589801103395,0.0866288903782303,0.4542024443052178,0.02796292525667194
149.0,1.8258258258258258,0.06516516516516516,0.4209276771810899,1.836153449540502,0.09163609480676432,0.41723320717593954,0.01632622107400345
150.0,1.8418418418418419,0.06836836836836838,0.4319154310283998,1.844849015812539,0.0954904747038538,0.4052639700466613,0.03378687820448072
151.0,1.8578578578578577,0.07157157157157155,0.4429031848757095,1.8567996110739131,0.1006174239910138,0.36829473291738307,0.054252807283630446
152.0,1.8738738738738738,0.07477477477477477,0.4538909387230194,1.8680945832933538,0.10497618373256139,0.3063254957881048,0.05260276674001302
153.0,1.8738738738738738,0.07477477477477477,0.4538909387230194,1.8764380843689639,0.10761507214412525,0.26935625865882656,0.09087335958047581
154.0,1.88988988988989,0.077977977977978,0.46487869257032927,1.8896931319443915,0.1112743296429556,0.20738702152954833,0.2424390482097936
155.0,1.88988988988989,0.077977977977978,0.46487869257032927,1.899252166937993,0.11328566792745638,0.17041778440027008,0.15673686658237257
156.0,1.9059059059059058,0.08118118118118117,0.475866446417639,1.9101592845431548,0.11516264050656155,0.10844854727099185,0.18881953538974064
157.0,1.921921921921922,0.08438438438438439,0.48685420026494886,1.9180603842414505,0.11602287838217255,0.0714793101417136,0.20281824359100226
